# # x [AU] | y [AU] | z [AU]  (sampling rate: 1pt per day)
1.787011052888428375e-01 9.937621566100189874e-01 9.791120249163705672e-03
1.618268540916730502e-01 9.965350528643786010e-01 9.789732020962635048e-03
1.449057139974447850e-01 9.990190148034762130e-01 9.785444298179651890e-03
1.279446012053034321e-01 1.001212977566225293e+00 9.778258395205113168e-03
1.109484537977686869e-01 1.003116303495295902e+00 9.768176459593026772e-03
9.392221987870005839e-02 1.004728437872809188e+00 9.755201464309458739e-03
7.687085621832934201e-02 1.006048909074449993e+00 9.739337207040461852e-03
5.979932689599893464e-02 1.007077328702791430e+00 9.720588309285533440e-03
4.271260194096216517e-02 1.007813391699815320e+00 9.698960215236670027e-03
2.561565597148410256e-02 1.008256876438561322e+00 9.674459190446951448e-03
8.513466832527792280e-03 1.008407644793886559e+00 9.647092320287493916e-03
-8.588985767714564165e-03 1.008265642192303968e+00 9.616867508184167787e-03
-2.568672162216395841e-02 1.007830897640865642e+00 9.583793473642179470e-03
-4.277476138980760428e-02 1.007103523735062067e+00 9.547879750064101542e-03
-5.984812796098293308e-02 1.006083716645724158e+00 9.509136682354786888e-03
-7.690184782271350383e-02 1.004771756084906764e+00 9.467575424315879951e-03
-9.393095242383316112e-02 1.003168005250729689e+00 9.423207935831503720e-03
-1.109304795396177656e-01 1.001272910751181966e+00 9.376046979847459106e-03
-1.278954746356401884e-01 9.990870025068513405e-01 9.326106119140083889e-03
-1.448209922305719599e-01 9.966108936325994705e-01 9.273399712875243089e-03
-1.617020972576498350e-01 9.938452802981500023e-01 9.217942912963239532e-03
-1.785338664245255669e-01 9.907909415675940634e-01 9.159751660211577079e-03
-1.953113895712123294e-01 9.874487392178261658e-01 9.098842680267954161e-03
-2.120297710258467194e-01 9.838196175358863149e-01 9.035233479357536457e-03
-2.286841309579835391e-01 9.799046030952349717e-01 8.968942339816109860e-03
-2.452696067291246507e-01 9.757048045109487644e-01 8.899988315423528612e-03
-2.617813542402047111e-01 9.712214121738463879e-01 8.828391226534308342e-03
-2.782145492757449601e-01 9.664556979635648970e-01 8.754171655008198549e-03
-2.945643888443748026e-01 9.614090149405900565e-01 8.677350938937067326e-03
-3.108260925154307519e-01 9.560827970172577350e-01 8.597951167176870815e-03
-3.269949037513446566e-01 9.504785586077596493e-01 8.515995173679111185e-03
-3.430660912355161241e-01 9.445978942571463532e-01 8.431506531616997022e-03
-3.590349501953810085e-01 9.384424782493830941e-01 8.344509547322770393e-03
-3.748968037203768144e-01 9.320140641944631987e-01 8.255029254027960658e-03
-3.906470040745032013e-01 9.253144845946179586e-01 8.163091405402639333e-03
-4.062809340031768301e-01 9.183456503896538781e-01 8.068722468901884728e-03
-4.217940080340757403e-01 9.111095504814586965e-01 7.971949618920400049e-03
-4.371816737716712198e-01 9.036082512377026088e-01 7.872800729754594537e-03
-4.524394131851522394e-01 8.958438959747998531e-01 7.771304368370875182e-03
-4.675627438894193189e-01 8.878187044201546474e-01 7.667489786986796466e-03
-4.825472204188434033e-01 8.795349721537547572e-01 7.561386915458713845e-03
-4.973884354934916541e-01 8.709950700291654302e-01 7.453026353480240486e-03
-5.120820212774946922e-01 8.622014435739768778e-01 7.342439362594192602e-03
-5.266236506292507613e-01 8.531566123697720272e-01 7.229657858023969159e-03
-5.410090383431509498e-01 8.438631694116734971e-01 7.114714400316887559e-03
-5.552339423825110032e-01 8.343237804475505115e-01 6.997642186796418709e-03
-5.692941651033891493e-01 8.245411832969503640e-01 6.878475042840610613e-03
-5.831855544689781290e-01 8.145181871498340387e-01 6.757247412974275516e-03
-5.969040052542530228e-01 8.042576718451979190e-01 6.633994351786125232e-03
-6.104454602405511299e-01 7.937625871296685176e-01 6.508751514667592518e-03
-6.238059113997534988e-01 7.830359518961707010e-01 6.381555148368764016e-03
-6.369814010677571359e-01 7.720808534027556735e-01 6.252442081377400027e-03
-6.499680231069153713e-01 7.609004464716956351e-01 6.121449714130734743e-03
-6.627619240571087644e-01 7.494979526689455884e-01 5.988616009055924838e-03
-6.753593042751340203e-01 7.378766594640824295e-01 5.853979480439711926e-03
-6.877564190620745199e-01 7.260399193708481080e-01 5.717579184126279739e-03
-6.999495797783313877e-01 7.139911490684147655e-01 5.579454707046466698e-03
-7.119351549459776995e-01 7.017338285034843137e-01 5.439646156579431083e-03
-7.237095713381169748e-01 6.892714999733747794e-01 5.298194149755111083e-03
-7.352693150549113321e-01 6.766077671902154256e-01 5.155139802296083290e-03
-7.466109325859565660e-01 6.637462943264115234e-01 5.010524717499871723e-03
-7.577310318586544247e-01 6.506908050415171063e-01 4.864390974962582576e-03
-7.686262832722678962e-01 6.374450814906684748e-01 4.716781119144177782e-03
-7.792934207173146666e-01 6.240129633147450949e-01 4.567738147779789280e-03
-7.897292425799802285e-01 6.103983466124263124e-01 4.417305500147540413e-03
-7.999306127312120207e-01 5.966051828943156332e-01 4.265527045185373532e-03
-8.098944615001624214e-01 5.826374780193122049e-01 4.112447069455670359e-03
-8.196177866316589622e-01 5.684992911134174598e-01 3.958110264967875692e-03
-8.290976542273562622e-01 5.541947334711733175e-01 3.802561716860305367e-03
-8.383311996702430546e-01 5.397279674399203531e-01 3.645846890944402351e-03
-8.473156285321726822e-01 5.251032052870937550e-01 3.488011621110525921e-03
-8.560482174640945408e-01 5.103247080507619104e-01 3.329102096598023867e-03
-8.645263150686566256e-01 4.953967843736315491e-01 3.169164849140749390e-03
-8.727473427548559926e-01 4.803237893207510378e-01 3.008246739976579587e-03
-8.807087955743942986e-01 4.651101231811316516e-01 2.846394946735410474e-03
-8.884082430394252272e-01 4.497602302535404495e-01 2.683656950204688346e-03
-8.958433299213773848e-01 4.342785976167063411e-01 2.520080520973405538e-03
-9.030117770305194913e-01 4.186697538842038546e-01 2.355713705965169300e-03
-9.099113819759463428e-01 4.029382679442601312e-01 2.190604814855297462e-03
-9.165400199056806807e-01 3.870887476847690301e-01 2.024802406372305623e-03
-9.228956442265573434e-01 3.711258387037875139e-01 1.858355274493699808e-03
-9.289762873036031543e-01 3.550542230057927018e-01 1.691312434541561308e-03
-9.347800611385748137e-01 3.388786176839987396e-01 1.523723109179285452e-03
-9.403051580273629195e-01 3.226037735890238123e-01 1.355636714307220268e-03
-9.455498511959598007e-01 3.062344739842206010e-01 1.187102844866007008e-03
-9.505124954146833005e-01 2.897755331879896534e-01 1.018171260552804165e-03
-9.551915275903670732e-01 2.732317952033871400e-01 8.488918714462686090e-04
-9.595854673362147480e-01 2.566081323353630039e-01 6.793147235504776518e-04
-9.636929175190291907e-01 2.399094437959626014e-01 5.094899842604187334e-04
-9.675125647835597364e-01 2.231406542978422169e-01 3.394679277501727816e-04
-9.710431800536476477e-01 2.063067126364478421e-01 1.692989202932237796e-04
-9.742836190099217752e-01 1.894125902612180390e-01 -9.665944914385595808e-07
-9.772328225437514337e-01 1.724632798361757924e-01 -1.712781104575035994e-04
-9.798898171872157947e-01 1.554637937902914879e-01 -3.415850738099647488e-04
-9.822537155188163505e-01 1.384191628580000721e-01 -5.118368980340044696e-04
-9.843237165446712122e-01 1.213344346102558646e-01 -6.819829788864622622e-04
-9.860991060549459952e-01 1.042146719765326274e-01 -8.519727094334361445e-04
-9.875792569552890310e-01 8.706495175817662024e-02 -1.021755495126588226e-03
-9.887636295730112268e-01 6.989036313352936514e-02 -1.191280768922215036e-03
-9.896517719377931899e-01 5.269600615523758330e-02 -1.360498006440111381e-03
-9.902433200366759225e-01 3.548699024018978077e-02 -1.529356741151548715e-03
-9.905379980431238129e-01 1.826843265250844422e-02 -1.697806579587385085e-03
-9.905356185199347685e-01 1.045456980053449583e-03 -1.865797216564807955e-03
-9.902360825957906565e-01 -1.617680839512630059e-02 -2.033278450429056375e-03
-9.896393801152253422e-01 -3.339323183193172034e-02 -2.200200198290515330e-03
-9.887455897618486755e-01 -5.059867997048172333e-02 -2.366512511263435103e-03
-9.875548791546013838e-01 -6.778801927705423169e-02 -2.532165589707286758e-03
-9.860675049168903250e-01 -8.495611759321682055e-02 -2.697109798452767930e-03
-9.842838127184161401e-01 -1.020978456886795227e-01 -2.861295682013216112e-03
-9.822042372895573026e-01 -1.192080788173923850e-01 -3.024673979776597386e-03
-9.798293024081620173e-01 -1.362816982763821461e-01 -3.187195641178935772e-03
-9.771596208586121879e-01 -1.533135929668472952e-01 -3.348811840849195542e-03
-9.741958943630353307e-01 -1.702986609570004695e-01 -3.509473993720666450e-03
-9.709389134845468616e-01 -1.872318110461450302e-01 -3.669133770112474862e-03
-9.673895575024249460e-01 -2.041079643294765322e-01 -3.827743110769525701e-03
-9.635487942591215438e-01 -2.209220557630791892e-01 -3.985254241858170350e-03
-9.594176799790141708e-01 -2.376690357285866917e-01 -4.141619689914904749e-03
-9.549973590588348715e-01 -2.543438715969804642e-01 -4.296792296743325024e-03
-9.502890638296934700e-01 -2.709415492909804657e-01 -4.450725234248050638e-03
-9.452941142906542416e-01 -2.874570748454939317e-01 -4.603372019203090179e-03
-9.400139178137937312e-01 -3.038854759655706950e-01 -4.754686527951870745e-03
-9.344499688207249521e-01 -3.202218035813211849e-01 -4.904623011027620973e-03
-9.286038484305603191e-01 -3.364611333992448827e-01 -5.053136107688770834e-03
-9.224772240792890043e-01 -3.525985674494065414e-01 -5.200180860371782926e-03
-9.160718491105738215e-01 -3.686292356279083360e-01 -5.345712729049287813e-03
-9.093895623379790738e-01 -3.845482972340987793e-01 -5.489687605485566238e-03
-9.024322875786382481e-01 -4.003509425019521895e-01 -5.632061827385826357e-03
-8.952020331584190638e-01 -4.160323941250555491e-01 -5.772792192436605394e-03
-8.877008913886069719e-01 -4.315879087746364307e-01 -5.911835972231510410e-03
-8.799310380141894816e-01 -4.470127786100611122e-01 -6.049150926071825661e-03
-8.718947316337897213e-01 -4.623023327812403882e-01 -6.184695314641233677e-03
-8.635943130913571464e-01 -4.774519389223630395e-01 -6.318427913549591601e-03
-8.550322048396999941e-01 -4.924570046363933584e-01 -6.450308026740691342e-03
-8.462109102759656221e-01 -5.073129789697532477e-01 -6.580295499747631192e-03
-8.371330130492069532e-01 -5.220153538766261203e-01 -6.708350732805589724e-03
-8.278011763401540435e-01 -5.365596656723067293e-01 -6.834434693807055552e-03
-8.182181421133549737e-01 -5.509414964750318777e-01 -6.958508931097440002e-03
-8.083867303418414973e-01 -5.651564756357103647e-01 -7.080535586109424663e-03
-7.983098382044947483e-01 -5.792002811549989971e-01 -7.200477405827753613e-03
-7.879904392562979698e-01 -5.930686410871485181e-01 -7.318297755077238231e-03
-7.774315825716876516e-01 -6.067573349300590113e-01 -7.433960628627334088e-03
-7.666363918612101314e-01 -6.202621950009753471e-01 -7.547430663115742809e-03
-7.556080645617169189e-01 -6.335791077972743324e-01 -7.658673148781581196e-03
-7.443498709003361080e-01 -6.467040153417780157e-01 -7.767654040998560154e-03
-7.328651529324806679e-01 -6.596329165120494720e-01 -7.874339971605972058e-03
-7.211573235541607341e-01 -6.723618683531116247e-01 -7.978698260037079756e-03
-7.092298654888778975e-01 -6.848869873730532021e-01 -8.080696924239884338e-03
-6.970863302494015867e-01 -6.972044508209811475e-01 -8.180304691380396731e-03
-6.847303370747312989e-01 -7.093104979467833582e-01 -8.277491008324075472e-03
-6.721655718425727510e-01 -7.212014312421719531e-01 -8.372226051893026308e-03
-6.593957859576468072e-01 -7.328736176624817134e-01 -8.464480738894471570e-03
-6.464247952161963351e-01 -7.443234898287032220e-01 -8.554226735923200695e-03
-6.332564786470367135e-01 -7.555475472092429978e-01 -8.641436468917667452e-03
-6.198947773295319097e-01 -7.665423572809068054e-01 -8.726083132474523468e-03
-6.063436931888738224e-01 -7.773045566686012098e-01 -8.808140698921225475e-03
-5.926072877690521379e-01 -7.878308522632785360e-01 -8.887583927136922038e-03
-5.786896809839492395e-01 -7.981180223176229660e-01 -8.964388371116729579e-03
-5.645950498469509693e-01 -8.081629175190163661e-01 -9.038530388276571834e-03
-5.503276271795286556e-01 -8.179624620393148859e-01 -9.109987147504253549e-03
-5.358917002992246159e-01 -8.275136545609811378e-01 -9.178736636934182319e-03
-5.212916096874984362e-01 -8.368135692791196512e-01 -9.244757671455799963e-03
-5.065317476379026518e-01 -8.458593568789892769e-01 -9.308029899950805500e-03
-4.916165568850616174e-01 -8.546482454885414581e-01 -9.368533812254739232e-03
-4.765505292149405103e-01 -8.631775416055896821e-01 -9.426250745833381767e-03
-4.613382040569055098e-01 -8.714446309991809025e-01 -9.481162892179107946e-03
-4.459841670580899087e-01 -8.794469795848007809e-01 -9.533253302925814854e-03
-4.304930486405770806e-01 -8.871821342729934168e-01 -9.582505895669678891e-03
-4.148695225419259947e-01 -8.946477237910456237e-01 -9.628905459501357206e-03
-3.991183043395834518e-01 -9.018414594773512816e-01 -9.672437660244228089e-03
-3.832441499597333823e-01 -9.087611360481263612e-01 -9.713089045396616425e-03
-3.672518541711259910e-01 -9.154046323361166859e-01 -9.750847048771585715e-03
-3.511462490644556844e-01 -9.217699120009832381e-01 -9.785699994836407831e-03
-3.349322025178670947e-01 -9.278550242110495949e-01 -9.817637102749647918e-03
-3.186146166491536369e-01 -9.336581042961044075e-01 -9.846648490096599968e-03
-3.021984262552490086e-01 -9.391773743709754818e-01 -9.872725176317136836e-03
-2.856885972396034923e-01 -9.444111439296006827e-01 -9.895859085822441073e-03
-2.690901250280403612e-01 -9.493578104093317593e-01 -9.916043050801922817e-03
-2.524080329737075079e-01 -9.540158597252332839e-01 -9.933270813722062942e-03
-2.356473707517270644e-01 -9.583838667741331196e-01 -9.947537029510018780e-03
-2.188132127441690389e-01 -9.624604959082085909e-01 -9.958837267428801224e-03
-2.019106564159802719e-01 -9.662445013779070724e-01 -9.967168012631675428e-03
-1.849448206824881036e-01 -9.697347277440152569e-01 -9.972526667404659970e-03
-1.679208442691242920e-01 -9.729301102586859207e-01 -9.974911552094347170e-03
-1.508438840639960421e-01 -9.758296752152761933e-01 -9.974321905718244730e-03
-1.337191134639479639e-01 -9.784325402668416771e-01 -9.970757886259696071e-03
-1.165517207147692136e-01 -9.807379147131608521e-01 -9.964220570641465699e-03
-9.934690724618377988e-02 -9.827450997561761881e-01 -9.954711954389267037e-03
-8.210988600227883683e-02 -9.844534887237289533e-01 -9.942234950974935398e-03
-6.484587976803361797e-02 -9.858625672615367597e-01 -9.926793390844726103e-03
-4.756011949258390215e-02 -9.869719134933101490e-01 -9.908392020134165409e-03
-3.025784260989368077e-02 -9.877811981489681425e-01 -9.887036499062125047e-03
-1.294429135748784154e-02 -9.882901846609136731e-01 -9.862733400008540444e-03
4.375288906097880501e-03 -9.884987292283320404e-01 -9.835490205283641332e-03
2.169565138449561920e-02 -9.884067808495089480e-01 -9.805315304583060373e-03
3.901154952665128461e-02 -9.880143813221781146e-01 -9.772217992131404518e-03
5.631773870928098030e-02 -9.873216652118989023e-01 -9.736208463515350769e-03
7.360897791797547940e-02 -9.863288597885273568e-01 -9.697297812207780754e-03
9.088003142631252695e-02 -9.850362849308027524e-01 -9.655498025783689625e-03
1.081256704723094486e-01 -9.834443529991362398e-01 -9.610821981831149663e-03
1.253406749315807978e-01 -9.815535686766669876e-01 -9.563283443555071692e-03
1.425198349865477443e-01 -9.793645287786870712e-01 -9.512897055082186401e-03
1.596579527910405305e-01 -9.768779220305519040e-01 -9.459678336470198068e-03
1.767498441296768696e-01 -9.740945288141862335e-01 -9.403643678416888363e-03
1.937903400713665292e-01 -9.710152208833342513e-01 -9.344810336671369871e-03
2.107742886163171958e-01 -9.676409610476999212e-01 -9.283196426157554193e-03
2.276965563358986921e-01 -9.639728028261611570e-01 -9.218820914803377981e-03
2.445520300047593354e-01 -9.600118900692152790e-01 -9.151703617087865797e-03
2.613356182245719084e-01 -9.557594565508735762e-01 -9.081865187306598780e-03
2.780422530387857694e-01 -9.512168255302037023e-01 -9.009327112552641820e-03
2.946668915377957942e-01 -9.463854092827456155e-01 -8.934111705420525601e-03
3.112045174539197490e-01 -9.412667086020436447e-01 -8.856242096439684644e-03
3.276501427455897342e-01 -9.358623122715340470e-01 -8.775742226236105809e-03
3.439988091701696726e-01 -9.301738965070533993e-01 -8.692636837419880080e-03
3.602455898448338467e-01 -9.242032243702442695e-01 -8.606951466213295238e-03
3.763855907949209545e-01 -9.179521451531573728e-01 -8.518712433822388935e-03
3.924139524892027997e-01 -9.114225937343259920e-01 -8.427946837548914299e-03
4.083258513615288243e-01 -9.046165899066513916e-01 -8.334682541652982390e-03
4.241165013182764398e-01 -8.975362376774052020e-01 -8.238948167964537522e-03
4.397811552310905703e-01 -8.901837245406909460e-01 -8.140773086248729098e-03
4.553151064143778903e-01 -8.825613207227130941e-01 -8.040187404332422433e-03
4.707136900870332874e-01 -8.746713784002092540e-01 -7.937221957996540983e-03
4.859722848178871790e-01 -8.665163308924226371e-01 -7.831908300636469117e-03
5.010863139543881850e-01 -8.580986918269817298e-01 -7.724278692692966575e-03
5.160512470340176128e-01 -8.494210542800838537e-01 -7.614366090865931115e-03
5.308626011779558063e-01 -8.404860898913850686e-01 -7.502204137106231914e-03
5.455159424665432244e-01 -8.312965479539956570e-01 -7.387827147392687054e-03
5.600068872960610733e-01 -8.218552544800045156e-01 -7.271270100302567284e-03
5.743311037163968402e-01 -8.121651112419649987e-01 -7.152568625372399472e-03
5.884843127491394821e-01 -8.022290947907629866e-01 -7.031758991265339709e-03
6.024622896856972609e-01 -7.920502554503154879e-01 -6.908878093748251591e-03
6.162608653649965795e-01 -7.816317162895507487e-01 -6.783963443481861103e-03
6.298759274303730171e-01 -7.709766720721138444e-01 -6.657053153625964829e-03
6.433034215652678744e-01 -7.600883881842707135e-01 -6.528185927277222605e-03
6.565393527073329905e-01 -7.489701995414694835e-01 -6.397401044729944183e-03
6.695797862405902245e-01 -7.376255094740392648e-01 -6.264738350582667661e-03
6.824208491652822284e-01 -7.260577885925021402e-01 -6.130238240684691454e-03
6.950587312450673405e-01 -7.142705736329895139e-01 -5.993941648931788539e-03
7.074896861312620633e-01 -7.022674662832493198e-01 -5.855890033922243366e-03
7.197100324637782931e-01 -6.900521319897479078e-01 -5.716125365470999670e-03
7.317161549484769711e-01 -6.776282987463675411e-01 -5.574690110984841310e-03
7.435045054106373952e-01 -6.649997558652166463e-01 -5.431627221709717061e-03
7.550716038242714090e-01 -6.521703527300637404e-01 -5.286980118848021853e-03
7.664140393170157939e-01 -6.391439975329122891e-01 -5.140792679551295374e-03
7.775284711503472890e-01 -6.259246559942530652e-01 -4.993109222799200879e-03
7.884116296748747699e-01 -6.125163500675162576e-01 -4.843974495158919098e-03
7.990603172604774374e-01 -5.989231566282412489e-01 -4.693433656438030996e-03
8.094714092010623085e-01 -5.851492061485217278e-01 -4.541532265237271417e-03
8.196418545937411704e-01 -5.711986813572317301e-01 -4.388316264404375742e-03
8.295686771922333724e-01 -5.570758158865837251e-01 -4.233831966391994606e-03
8.392489762343036119e-01 -5.427848929055464344e-01 -4.078126038531461502e-03
8.486799272430620711e-01 -5.283302437406542928e-01 -3.921245488225727494e-03
8.578587828019788031e-01 -5.137162464847547794e-01 -3.763237648065162737e-03
8.667828733034426136e-01 -4.989473245942288027e-01 -3.604150160879590874e-03
8.754496076707448671e-01 -4.840279454752116073e-01 -3.444030964726538940e-03
8.838564740533706443e-01 -4.689626190593570998e-01 -3.282928277818263248e-03
8.920010404954751282e-01 -4.537558963696790015e-01 -3.120890583394685721e-03
8.998809555774370805e-01 -4.384123680770077303e-01 -2.957966614553666877e-03
9.074939490304256839e-01 -4.229366630475882016e-01 -2.794205339038121055e-03
9.148378323238822718e-01 -4.073334468823603394e-01 -2.629655943991176734e-03
