# # x [AU] | y [AU] | z [AU]  (sampling rate: 1pt per day)
1.673458028415699683e-01 9.869538605758242378e-01 -5.175255913051426265e-03
1.503126339190489213e-01 9.896642011059213484e-01 -5.024526895547857738e-03
1.332348325506391151e-01 9.920801551933230433e-01 -4.872328748701063375e-03
1.161195184926626239e-01 9.942007470648758227e-01 -4.718725000125966081e-03
9.897181152884663990e-02 9.960254273535530389e-01 -4.563761865624843886e-03
8.179683828766184939e-02 9.975537357885768674e-01 -4.407485943649354018e-03
6.459973068030470944e-02 9.987853012354462878e-01 -4.249944200648898829e-03
4.738562434049298222e-02 9.997198417082679978e-01 -4.091183956344358712e-03
3.015965706666472179e-02 1.000357164354507944e+00 -3.931252868940272698e-03
1.292696726702447126e-02 1.000697165412284706e+00 -3.770198920275360903e-03
-4.307307592049698132e-03 1.000739830140322084e+00 -3.608070400914720373e-03
-2.153803253377119600e-02 1.000485232720701223e+00 -3.444915895188213704e-03
-3.876007661439759278e-02 9.999335361345632611e-01 -3.280784266178274865e-03
-5.596831446190482506e-02 9.990849920109091675e-01 -3.115724640667041391e-03
-7.315762780941646726e-02 9.979399404486755110e-01 -2.949786394037951388e-03
-9.032290702293307993e-02 9.964988098122540272e-01 -2.783019135139900430e-03
-1.074590526228994813e-01 9.947621165006463873e-01 -2.615472691123815058e-03
-1.245609767991643357e-01 9.927304646904423491e-01 -2.447197092256971507e-03
-1.416236049188883406e-01 9.904045460528128064e-01 -2.278242556707107697e-03
-1.586418770269643619e-01 9.877851394447507705e-01 -2.108659475312947562e-03
-1.756107493385178631e-01 9.848731105747485781e-01 -1.938498396336727197e-03
-1.925251957230632027e-01 9.816694116431470274e-01 -1.767810010212282276e-03
-2.093802091798993847e-01 9.781750809573936944e-01 -1.596645134284100601e-03
-2.261708033043329513e-01 9.743912425224212637e-01 -1.425054697547074607e-03
-2.428920137443234262e-01 9.703191056064079945e-01 -1.253089725390489628e-03
-2.595388996471550969e-01 9.659599642821622423e-01 -1.080801324348609977e-03
-2.761065450957378986e-01 9.613151969443782807e-01 -9.082406668637603301e-04
-2.925900605341532068e-01 9.563862658030291009e-01 -7.354589760735490579e-04
-3.089845841820778594e-01 9.511747163531574234e-01 -5.625075106141901038e-04
-3.252852834377069624e-01 9.456821768213344859e-01 -3.894375494477583062e-04
-3.414873562688173214e-01 9.399103575890643825e-01 -2.163003767239034009e-04
-3.575860325916075388e-01 9.338610505934151762e-01 -4.314726667183318748e-05
-3.735765756369809898e-01 9.275361287051544501e-01 1.299705314689724323e-04
-3.894542833039157936e-01 9.209375450846788436e-01 3.030018084693483879e-04
-4.052144894995899915e-01 9.140673325160328933e-01 4.758954100928551242e-04
-4.208525654659355242e-01 9.069276027193109435e-01 6.486002520208316571e-04
-4.363639210923061507e-01 8.995205456417443290e-01 8.210653347234492076e-04
-4.517440062139404522e-01 8.918484287277709255e-01 9.932397582747981308e-04
-4.669883118959173296e-01 8.839135961684061460e-01 1.165072737100816868e-03
-4.820923717023029575e-01 8.757184681302092599e-01 1.336513614659436307e-03
-4.970517629502039236e-01 8.672655399641793217e-01 1.507511878056269627e-03
-5.118621079484380054e-01 8.585573813948734756e-01 1.678017172581938504e-03
-5.265190752205475277e-01 8.495966356900893635e-01 1.847979316171380988e-03
-5.410183807118856825e-01 8.403860188114078422e-01 2.017348313783862580e-03
-5.553557889805122993e-01 8.309283185459451770e-01 2.186074371693917922e-03
-5.695271143716439388e-01 8.212263936196252390e-01 2.354107911696718802e-03
-5.835282221754157783e-01 8.112831727923033309e-01 2.521399585221560571e-03
-5.973550297677041598e-01 8.011016539350697130e-01 2.687900287350641123e-03
-6.110035077337762077e-01 7.906849030900657826e-01 2.853561170730658462e-03
-6.244696809745473587e-01 7.800360535131471984e-01 3.018333659386425883e-03
-6.377496297952128801e-01 7.691583046997267914e-01 3.182169462433794265e-03
-6.508394909760540914e-01 7.580549213941344400e-01 3.345020587679875014e-03
-6.637354588252042387e-01 7.467292325828295274e-01 3.506839355109313359e-03
-6.764337862131677426e-01 7.351846304717948311e-01 3.667578410255806654e-03
-6.889307855889036381e-01 7.234245694484612299e-01 3.827190737457240952e-03
-7.012228299772870210e-01 7.114525650285019598e-01 3.985629672989876582e-03
-7.133063539577695344e-01 6.992721927878359223e-01 4.142848918077469272e-03
-7.251778546240452705e-01 6.868870872801757788e-01 4.298802551778767647e-03
-7.368338925245793147e-01 6.743009409404635557e-01 4.453445043741010266e-03
-7.482710925838119698e-01 6.615175029745279378e-01 4.606731266817570836e-03
-7.594861450039031014e-01 6.485405782353176329e-01 4.758616509549867812e-03
-7.704758061468514052e-01 6.353740260860410993e-01 4.909056488515128706e-03
-7.812368993968460407e-01 6.220217592505622450e-01 5.058007360536504946e-03
-7.917663160027021974e-01 6.084877426513867205e-01 5.205425734752415663e-03
-8.020610159002679040e-01 5.947759922355804196e-01 5.351268684531440382e-03
-8.121180285146566424e-01 5.808905737889584753e-01 5.495493759242647651e-03
-8.219344535421877485e-01 5.668356017388878065e-01 5.638058995880096749e-03
-8.315074617119181388e-01 5.526152379460477215e-01 5.778922930529537677e-03
-8.408342955266573382e-01 5.382336904854778670e-01 5.918044609679463074e-03
-8.499122699833475680e-01 5.236952124172538081e-01 6.055383601378463640e-03
-8.587387732727177481e-01 5.090041005471312996e-01 6.190900006240176827e-03
-8.673112674581073822e-01 4.941646941774931467e-01 6.324554468282033402e-03
-8.756272891333773956e-01 4.791813738489336116e-01 6.456308185596232839e-03
-8.836844500598142194e-01 4.640585600728204807e-01 6.586122920859423246e-03
-8.914804377819447456e-01 4.488007120551606444e-01 6.713961011675282330e-03
-8.990130162221827703e-01 4.334123264121149122e-01 6.839785380747881276e-03
-9.062800262542429763e-01 4.178979358774812525e-01 6.963559545884810686e-03
-9.132793862552517350e-01 4.022621080024825213e-01 7.085247629824096768e-03
-9.200090926364801192e-01 3.865094438481915251e-01 7.204814369890079860e-03
-9.264672203526506111e-01 3.706445766709239864e-01 7.322225127475367849e-03
-9.326519233897559991e-01 3.546721706009229869e-01 7.437445897345212886e-03
-9.385614352313470521e-01 3.385969193146624034e-01 7.550443316759048243e-03
-9.441940693032336851e-01 3.224235447010944666e-01 7.661184674411445662e-03
-9.495482193965559814e-01 3.061567955221700110e-01 7.769637919191238126e-03
-9.546223600691963185e-01 2.898014460679511073e-01 7.875771668755996921e-03
-9.594150470254967367e-01 2.733622948066353753e-01 7.979555217917462875e-03
-9.639249174742386961e-01 2.568441630298158862e-01 8.080958546843094309e-03
-9.681506904648726763e-01 2.402518934933005890e-01 8.179952329072190387e-03
-9.720911672019613148e-01 2.235903490538003469e-01 8.276507939341131576e-03
-9.757452313378385256e-01 2.068644113018097697e-01 8.370597461209040163e-03
-9.791118492434406351e-01 1.900789791909914539e-01 8.462193694491200457e-03
-9.821900702573270747e-01 1.732389676643902865e-01 8.551270162500294175e-03
-9.849790269128467779e-01 1.563493062777801812e-01 8.637801119092368418e-03
-9.874779351434858077e-01 1.394149378204607992e-01 8.721761555512436148e-03
-9.896860944663612436e-01 1.224408169338079971e-01 8.803127207035655113e-03
-9.916028881438817555e-01 1.054319087279068923e-01 8.881874559415877876e-03
-9.932277833235634290e-01 8.839318739656683299e-02 8.957980855130567854e-03
-9.945603311560260451e-01 7.132963483102577884e-02 9.031424099420507987e-03
-9.956001668911592661e-01 5.424623923266138487e-02 9.102183066127630950e-03
-9.963470099524881496e-01 3.714799372501881303e-02 9.170237303329852041e-03
-9.968006639897363241e-01 2.003989496546765628e-02 9.235567138773428594e-03
-9.969610169096079222e-01 2.926941756777668054e-03 9.298153685096956569e-03
-9.968280408847975949e-01 -1.418586634106073704e-02 9.357978844856179243e-03
-9.964017923412626931e-01 -3.129353039847698748e-02 9.415025315345002324e-03
-9.956824119237382975e-01 -4.839105350311996567e-02 9.469276593208357864e-03
-9.946701244395581565e-01 -6.547344214551972796e-02 9.520716978853760448e-03
-9.933652387807850870e-01 -8.253570760330830591e-02 9.569331580657801720e-03
-9.917681478246866966e-01 -9.957286732370558557e-02 9.615106318969101132e-03
-9.898793283125971731e-01 -1.165799463039804557e-01 9.658027929907957512e-03
-9.876993407071941178e-01 -1.335519784696005963e-01 9.698083968954105891e-03
-9.852288290282500416e-01 -1.504840080497673038e-01 9.735262814326049036e-03
-9.824685206669018234e-01 -1.673710909500530086e-01 9.769553670148083124e-03
-9.794192261784854248e-01 -1.842082961218412807e-01 9.800946569404273348e-03
-9.760818390540026979e-01 -2.009907069282739767e-01 9.829432376676123378e-03
-9.724573354702683581e-01 -2.177134225064193684e-01 9.855002790664434825e-03
-9.685467740188065111e-01 -2.343715591253553721e-01 9.877650346496211903e-03
-9.643512954135448068e-01 -2.509602515398779432e-01 9.897368417815612107e-03
-9.598721221773864887e-01 -2.674746543395405962e-01 9.914151218656514289e-03
-9.551105583077139638e-01 -2.839099432927261191e-01 9.927993805096253094e-03
-9.500679889208928364e-01 -3.002613166854644633e-01 9.938892076687340024e-03
-9.447458798758410214e-01 -3.165239966546933847e-01 9.946842777676854347e-03
-9.391457773767418749e-01 -3.326932305156710679e-01 9.951843498004717473e-03
-9.332693075549695072e-01 -3.487642920832654259e-01 9.953892674083990658e-03
-9.271181760303079944e-01 -3.647324829868066609e-01 9.952989589364847484e-03
-9.206941674515345397e-01 -3.805931339782247513e-01 9.949134374679324128e-03
-9.139991450164604014e-01 -3.963416062331808765e-01 9.942328008367369574e-03
-9.070350499715023052e-01 -4.119732926449005128e-01 9.932572316181661337e-03
-8.998039010908847057e-01 -4.274836191104208760e-01 9.919869970978486412e-03
-8.923077941355461729e-01 -4.428680458089676586e-01 9.904224492190012372e-03
-8.845489012918711369e-01 -4.581220684721613035e-01 9.885640245074735905e-03
-8.765294705903163841e-01 -4.732412196457753684e-01 9.864122439749097720e-03
-8.682518253040586442e-01 -4.882210699427557699e-01 9.839677130001119043e-03
-8.597183633277480919e-01 -5.030572292872123041e-01 9.812311211883908632e-03
-8.509315565364722334e-01 -5.177453481490932319e-01 9.782032422095564630e-03
-8.418939501250582991e-01 -5.322811187692605417e-01 9.748849336138818572e-03
-8.326081619278178358e-01 -5.466602763746722937e-01 9.712771366256230457e-03
-8.230768817188458542e-01 -5.608786003833892142e-01 9.673808759148940645e-03
-8.133028704930060915e-01 -5.749319155991118313e-01 9.631972593477583847e-03
-8.032889597277178551e-01 -5.888160933949653231e-01 9.587274777144105808e-03
-7.930380506256718975e-01 -6.025270528862421981e-01 9.539728044355802808e-03
-7.825531133386167681e-01 -6.160607620918271410e-01 9.489345952466895009e-03
-7.718371861723253291e-01 -6.294132390840004865e-01 9.436142878607224962e-03
-7.608933747729130781e-01 -6.425805531263490966e-01 9.380134016092164101e-03
-7.497248512946176335e-01 -6.555588257994898749e-01 9.321335370613362953e-03
-7.383348535492030296e-01 -6.683442321143270304e-01 9.259763756212673058e-03
-7.267266841371345931e-01 -6.809330016125537677e-01 9.195436791041722985e-03
-7.149037095606853853e-01 -6.933214194541142961e-01 9.128372892904411048e-03
-7.028693593191157607e-01 -7.055058274913401650e-01 9.058591274584254158e-03
-6.906271249861029027e-01 -7.174826253294803724e-01 8.986111938951343511e-03
-6.781805592695661078e-01 -7.292482713733428046e-01 8.910955673856444520e-03
-6.655332750540883247e-01 -7.407992838597582397e-01 8.833144046809916425e-03
-6.526889444260848272e-01 -7.521322418755852501e-01 8.752699399449153511e-03
-6.396512976818959917e-01 -7.632437863609791151e-01 8.669644841794119441e-03
-6.264241223190020191e-01 -7.741306210976476310e-01 8.584004246292272280e-03
-6.130112620105346855e-01 -7.847895136817946149e-01 8.495802241648217276e-03
-5.994166155632796311e-01 -7.952172964814867573e-01 8.405064206440441416e-03
-5.856441358593712510e-01 -8.054108675781704862e-01 8.311816262532800703e-03
-5.716978287818691440e-01 -8.153671916920398610e-01 8.216085268280088824e-03
-5.575817521244443853e-01 -8.250833010909984777e-01 8.117898811519107249e-03
-5.433000144853573632e-01 -8.345562964829321695e-01 8.017285202354326734e-03
-5.288567741459598848e-01 -8.437833478910230500e-01 7.914273465739583499e-03
-5.142562379339357115e-01 -8.527616955118222375e-01 7.808893333850970217e-03
-4.995026600715084530e-01 -8.614886505558119190e-01 7.701175238259884252e-03
-4.846003410088414731e-01 -8.699615960701938544e-01 7.591150301902049001e-03
-4.695536262428684493e-01 -8.781779877436216575e-01 7.478850330846381102e-03
-4.543669051217961719e-01 -8.861353546926310498e-01 7.364307805863356572e-03
-4.390446096355221095e-01 -8.938313002294763221e-01 7.247555873794446664e-03
-4.235912131922170976e-01 -9.012635026111276426e-01 7.128628338722121233e-03
-4.080112293813273894e-01 -9.084297157691548774e-01 7.007559652949997032e-03
-3.923092107232637460e-01 -9.153277700202533396e-01 6.884384907785876320e-03
-3.764897474060321381e-01 -9.219555727571361325e-01 6.759139824131651757e-03
-3.605574660090828942e-01 -9.283111091195476172e-01 6.631860742880296179e-03
-3.445170282146630680e-01 -9.343924426451393206e-01 6.502584615124958403e-03
-3.283731295069405864e-01 -9.401977158999641482e-01 6.371348992183641438e-03
-3.121304978591972756e-01 -9.457251510883387668e-01 6.238192015433330004e-03
-2.957938924093806432e-01 -9.509730506418242468e-01 6.103152405961912233e-03
-2.793681021243066276e-01 -9.559397977870922603e-01 5.966269454037611934e-03
-2.628579444528322817e-01 -9.606238570924351405e-01 5.827583008397050311e-03
-2.462682639683043684e-01 -9.650237749926768860e-01 5.687133465355775214e-03
-2.296039310005885681e-01 -9.691381802922528488e-01 5.544961757745367481e-03
-2.128698402580182225e-01 -9.729657846462445026e-01 5.401109343671077131e-03
-1.960709094395712004e-01 -9.765053830191396944e-01 5.255618195098600565e-03
-1.792120778376191104e-01 -9.797558541210872329e-01 5.108530786275466626e-03
-1.622983049315873672e-01 -9.827161608214326494e-01 4.959890081985714877e-03
-1.453345689728647028e-01 -9.853853505393220802e-01 4.809739525637962351e-03
-1.283258655613118970e-01 -9.877625556111744309e-01 4.658123027190291809e-03
-1.112772062137331597e-01 -9.898469936348051057e-01 4.505084950916239325e-03
-9.419361692465813563e-02 -9.916379677899986866e-01 4.350670103016640415e-03
-7.708013671981316095e-02 -9.931348671353529278e-01 4.194923719079843988e-03
-5.994181620263764471e-02 -9.943371668811852304e-01 4.037891451386536705e-03
-4.278371609423958083e-02 -9.952444286383262950e-01 3.879619356068923428e-03
-2.561090576715706335e-02 -9.958563006426152109e-01 3.720153880119254734e-03
-8.428461773318032813e-03 -9.961725179549234532e-01 3.559541848266954342e-03
8.758533633394370577e-03 -9.961929026365348161e-01 3.397830449709136370e-03
2.594499397958534639e-02 -9.959173638997292910e-01 3.235067224705415623e-03
4.312583005940080066e-02 -9.953458982333918126e-01 3.071300051040569239e-03
6.029595142576998912e-02 -9.944785895035278545e-01 2.906577130358978852e-03
7.745026788543325769e-02 -9.933156090284989137e-01 2.740946974374869598e-03
9.458369099732277796e-02 -9.918572156288665287e-01 2.574458390958289569e-03
1.116911355738869488e-01 -9.901037556517044980e-01 2.407160470098855011e-03
1.287675211849220180e-01 -9.880556629692522908e-01 2.239102569756727234e-03
1.458077736634738331e-01 -9.857134589517998480e-01 2.070334301605885295e-03
1.628068266133833875e-01 -9.830777524146837587e-01 1.900905516665432919e-03
1.797596229180228600e-01 -9.801492395392866763e-01 1.730866290826522545e-03
1.966611162497820808e-01 -9.769287037679512675e-01 1.560266910279926780e-03
2.135062725798437255e-01 -9.734170156727138812e-01 1.389157856847487299e-03
2.302900716878035492e-01 -9.696151327977815537e-01 1.217589793220733496e-03
2.470075086706670087e-01 -9.655240994756790762e-01 1.045613548110019319e-03
2.636535954507527868e-01 -9.611450466169942919e-01 8.732801013135127422e-04
2.802233622820587411e-01 -9.564791914736746614e-01 7.006405687002991876e-04
2.967118592545964773e-01 -9.515278373758122576e-01 5.277461871198184992e-04
3.131141577962230915e-01 -9.462923734418935418e-01 3.546482992415406687e-04
3.294253521715044264e-01 -9.407742742624659593e-01 1.813983383274019967e-04
3.456405609771168730e-01 -9.349750995572059242e-01 8.047812941015085325e-06
3.617549286333029412e-01 -9.288964938053926312e-01 -1.653517084032822386e-04
3.777636268709008704e-01 -9.225401858497542795e-01 -3.387486126385758729e-04
3.936618562134571175e-01 -9.159079884737089117e-01 -5.120912575949261841e-04
4.094448474539170157e-01 -9.090017979520136349e-01 -6.853279874937624402e-04
4.251078631254208706e-01 -9.018235935748356580e-01 -8.584071484799298988e-04
4.406461989656895173e-01 -8.943754371453006558e-01 -1.031277104187501223e-03
4.560551853745118955e-01 -8.866594724505421077e-01 -1.203886251333386110e-03
4.713301888638323778e-01 -8.786779247063252196e-01 -1.376183035331849649e-03
4.864666134999308111e-01 -8.704330999752972753e-01 -1.548115965934692990e-03
5.014599023371992814e-01 -8.619273845589493499e-01 -1.719633632879474447e-03
5.163055388429984571e-01 -8.531632443633664353e-01 -1.890684721544554688e-03
5.309990483131006300e-01 -8.441432242388656748e-01 -2.061218028609535825e-03
5.455359992772051969e-01 -8.348699472936234045e-01 -2.231182477710371651e-03
5.599120048940152694e-01 -8.253461141814163460e-01 -2.400527135095955212e-03
5.741227243353786980e-01 -8.155745023636015167e-01 -2.569201225269701454e-03
5.881638641589737038e-01 -8.055579653454680855e-01 -2.737154146614161239e-03
6.020311796690320794e-01 -7.952994318871083879e-01 -2.904335486996176101e-03
6.157204762646011353e-01 -7.848019051889659758e-01 -3.070695039342816787e-03
6.292276107748326908e-01 -7.740684620522226833e-01 -3.236182817192194763e-03
6.425484927807908475e-01 -7.631022520142075605e-01 -3.400749070216554145e-03
6.556790859232907165e-01 -7.519064964590158606e-01 -3.564344299697850410e-03
6.686154091962621671e-01 -7.404844877035372530e-01 -3.726919273965489596e-03
6.813535382251408867e-01 -7.288395880591029830e-01 -3.888425043784519454e-03
6.938896065298089111e-01 -7.169752288689831277e-01 -4.048812957689625243e-03
7.062198067715809158e-01 -7.048949095219633199e-01 -4.208034677259548176e-03
7.183403919837650919e-01 -6.926021964422462984e-01 -4.366042192325351491e-03
7.302476767853053330e-01 -6.801007220559582844e-01 -4.522787836098705362e-03
7.419380385770397712e-01 -6.673941837345073180e-01 -4.678224300226493763e-03
7.534079187200860561e-01 -6.544863427150983126e-01 -4.832304649756897531e-03
7.646538236958839718e-01 -6.413810229987000344e-01 -4.984982338014330716e-03
7.756723262474343183e-01 -6.280821102257662103e-01 -5.136211221372445450e-03
7.864600665012624336e-01 -6.145935505300250679e-01 -5.285945573922297067e-03
7.970137530696421724e-01 -6.009193493706809219e-01 -5.434140102025874358e-03
8.073301641326321443e-01 -5.870635703433515484e-01 -5.580749958750107383e-03
8.174061484994695759e-01 -5.730303339700922871e-01 -5.725730758184035575e-03
8.272386266488708229e-01 -5.588238164688724696e-01 -5.869038589628379141e-03
8.368245917478106533e-01 -5.444482485028685481e-01 -6.010630031653199472e-03
8.461611106483460931e-01 -5.299079139099511782e-01 -6.150462166020129705e-03
8.552453248620507376e-01 -5.152071484127670464e-01 -6.288492591453915918e-03
8.640744515116561830e-01 -5.003503383097962498e-01 -6.424679437269626738e-03
8.726457842594737002e-01 -4.853419191478133832e-01 -6.558981376854305760e-03
8.809566942122112332e-01 -4.701863743761557357e-01 -6.691357640987594807e-03
8.890046308017709453e-01 -4.548882339832434063e-01 -6.821768030996962565e-03
8.967871226416581631e-01 -4.394520731157800508e-01 -6.950172931747430199e-03
9.043017783586183578e-01 -4.238825106810875654e-01 -7.076533324458587904e-03
9.115462873991214687e-01 -4.081842079330365580e-01 -7.200810799344921180e-03
